CORRW ASCII
  CorrWare for Windows: Version 3.3c
  Cyclic Voltammogram	[0 OC;0,8 Ref;-0,6 Ref;0 OC;50mV/S,x5][custom]	2022_12_15_Characterisation_50mVs_5Scans_06_08V_W239_E15_Ch7.cor (append)
  Date: 12-15-2022    Time: 16:15:14


  Open Circuit Potential (V): 0,2063
  Begin Information:          Cell Information
    Surface Area:             1
    Density:                  0
    Weight:                   0
    Polarity:                 0
    PolarityI:                0
    Corrosion Unit Type:      0
    Reference Type:           0
    Reference Potential:      0,211
    User-Defined Potential:   0,211
    Stern-Geary:              26
  End Information:            Cell Information
  Begin Pstat:                1287
    Pstat Title:              Instrument #1
    Current Range:            8
    Current Limit:            0
    Current LimitType:        2
    Sweep Type:               0
    Use Error Beep:           0
    Auxilary Type:            0
    iR Comp. Type:            0
    iR Ohms:                  20000
    iR Time:                  27
    iR Ratio:                 255
    LP Filter Type:           2
    Drift Correction:         1
    Null Correction:          0
    Pstat Bandwidth Type:     2
    Gstat Bandwidth Type:     2
    External Input:           0
  End Pstat:                  1287
  Begin Experiment:           Cyclic Voltammogram	[0 OC;0,8 Ref;-0,6 Ref;0 OC;50mV/S,x5][custom]	2022_12_15_Characterisation_50mVs_5Scans_06_08V_W239_E15_Ch7.cor (append)
    Data File:                C:\daten\_Ivo Strauss\NERFPN\2022_12_15_Characterisation_50mVs_5Scans_06_08V_W239_E15_Ch7.cor
    Data Append:              1
    Comment Lines:            0
    Potential #1:             0
    Potential #1 Type:        0
    Use Potential #1:         1
    Potential #2:             0,8
    Potential #2 Type:        1
    Potential #3:             -0,6
    Potential #3 Type:        1
    Potential #4:             0
    Potential #4 Type:        0
    Use Potential #4:         1
    Scan Rate:                50
    Scan Number:              5
    Measure Rate Type:        1
    Measure Rate #1:          1000
    Measure Rate #2:          50
    Measure Rate #3:          1
    Measure Rate #4:          0,5
    Measure Rate #5:          1
    Integrate Use:            0
    Integrate SegA1:          0
    Integrate SegA2:          0
    Integrate SegB1:          0
    Integrate SegB2:          0
    Integrate SegC1:          0
    Integrate SegC2:          0
    Save Data Type:           0
    Axes Type:                4
    Use Custom Pstat:         1
    Pstat Type:               1287
    Begin Pstat:              1287
      Pstat Title:            Instrument #1
      Current Range:          8
      Current Limit:          0
      Current LimitType:      2
      Sweep Type:             0
      Use Error Beep:         0
      Auxilary Type:          0
      iR Comp. Type:          0
      iR Ohms:                20000
      iR Time:                27
      iR Ratio:               255
      LP Filter Type:         2
      Drift Correction:       1
      Null Correction:        0
      Pstat Bandwidth Type:   2
      Gstat Bandwidth Type:   2
      External Input:         0
    End Pstat:                1287
  End Experiment:             Cyclic Voltammogram	[0 OC;0,8 Ref;-0,6 Ref;0 OC;50mV/S,x5][custom]	2022_12_15_Characterisation_50mVs_5Scans_06_08V_W239_E15_Ch7.cor (append)
  Data Points:                578
E(Volts)	I(A/cm2)	T(Seconds)
End Comments
2.7077E-01	1.2583E-08	0.000000E+00
2.9273E-01	1.3925E-08	4.400000E-01
3.1419E-01	1.5030E-08	8.700000E-01
3.3628E-01	1.5995E-08	1.320000E+00
3.5788E-01	1.6848E-08	1.760000E+00
3.7979E-01	1.7619E-08	2.220000E+00
4.0383E-01	1.8414E-08	2.690000E+00
4.2572E-01	1.9156E-08	3.130000E+00
4.4727E-01	1.9975E-08	3.570000E+00
4.6915E-01	2.0952E-08	4.010000E+00
4.9068E-01	2.2142E-08	4.450000E+00
5.1387E-01	2.3685E-08	4.920000E+00
5.5972E-01	2.7907E-08	5.850000E+00
5.8158E-01	3.0811E-08	6.290000E+00
6.0294E-01	3.4887E-08	6.720000E+00
6.2495E-01	4.1033E-08	7.170000E+00
6.4646E-01	4.8142E-08	7.610000E+00
6.6830E-01	5.4722E-08	8.050000E+00
6.9260E-01	6.0144E-08	8.540000E+00
7.1444E-01	6.4030E-08	8.990000E+00
7.3594E-01	6.7813E-08	9.420000E+00
7.5745E-01	7.3046E-08	9.860000E+00
7.7945E-01	8.2075E-08	1.031000E+01
7.9691E-01	8.2545E-08	1.074000E+01
7.8109E-01	4.6407E-08	1.118000E+01
7.5669E-01	3.2521E-08	1.168000E+01
7.3444E-01	2.7048E-08	1.213000E+01
7.1288E-01	2.4169E-08	1.256000E+01
6.9084E-01	2.2196E-08	1.301000E+01
6.6947E-01	2.0279E-08	1.344000E+01
6.4760E-01	1.7326E-08	1.389000E+01
6.2313E-01	1.2067E-08	1.438000E+01
6.0161E-01	6.0360E-09	1.482000E+01
5.5824E-01	-5.1222E-09	1.570000E+01
5.3640E-01	-8.7359E-09	1.614000E+01
5.1505E-01	-1.1128E-08	1.658000E+01
4.9026E-01	-1.2708E-08	1.708000E+01
4.6874E-01	-1.3588E-08	1.752000E+01
4.4675E-01	-1.4114E-08	1.796000E+01
4.2540E-01	-1.4390E-08	1.840000E+01
4.0407E-01	-1.4510E-08	1.883000E+01
3.7929E-01	-1.4546E-08	1.933000E+01
3.5779E-01	-1.4511E-08	1.977000E+01
3.3578E-01	-1.4462E-08	2.022000E+01
3.1446E-01	-1.4400E-08	2.065000E+01
2.9265E-01	-1.4352E-08	2.109000E+01
2.7132E-01	-1.4334E-08	2.153000E+01
2.4655E-01	-1.4345E-08	2.203000E+01
2.2505E-01	-1.4402E-08	2.247000E+01
2.0308E-01	-1.4510E-08	2.291000E+01
1.8176E-01	-1.4662E-08	2.334000E+01
1.6043E-01	-1.4876E-08	2.378000E+01
1.3349E-01	-1.5213E-08	2.432000E+01
9.0362E-02	-1.5970E-08	2.520000E+01
4.6909E-02	-1.6911E-08	2.611000E+01
2.2644E-02	-1.7503E-08	2.657000E+01
6.7300E-04	-1.8051E-08	2.702000E+01
-2.0804E-02	-1.8589E-08	2.746000E+01
-4.2610E-02	-1.9113E-08	2.790000E+01
-6.3922E-02	-1.9602E-08	2.833000E+01
-8.5398E-02	-2.0026E-08	2.877000E+01
-1.0736E-01	-2.0405E-08	2.924000E+01
-1.3163E-01	-2.0710E-08	2.971000E+01
-1.5359E-01	-2.0903E-08	3.016000E+01
-1.7490E-01	-2.1049E-08	3.059000E+01
-2.2616E-01	-2.1406E-08	3.164000E+01
-2.6958E-01	-2.2092E-08	3.252000E+01
-2.9155E-01	-2.2651E-08	3.297000E+01
-3.1285E-01	-2.3329E-08	3.340000E+01
-3.3414E-01	-2.4103E-08	3.383000E+01
-3.5888E-01	-2.5121E-08	3.434000E+01
-3.8036E-01	-2.6034E-08	3.477000E+01
-4.2378E-01	-2.7741E-08	3.566000E+01
-4.4556E-01	-2.8311E-08	3.610000E+01
-4.6686E-01	-2.8818E-08	3.653000E+01
-4.8882E-01	-2.8976E-08	3.700000E+01
-5.1290E-01	-2.8894E-08	3.747000E+01
-5.3486E-01	-2.8523E-08	3.792000E+01
-5.5615E-01	-2.8090E-08	3.835000E+01
-5.7745E-01	-2.8021E-08	3.878000E+01
-5.9358E-01	-1.9723E-08	3.923000E+01
-5.7308E-01	-5.3714E-09	3.973000E+01
-5.5096E-01	-1.8346E-09	4.017000E+01
-5.2936E-01	1.8846E-10	4.061000E+01
-5.0728E-01	1.4146E-09	4.106000E+01
-4.8585E-01	2.3745E-09	4.149000E+01
-4.6393E-01	2.9130E-09	4.193000E+01
-4.3875E-01	3.6768E-09	4.245000E+01
-4.1670E-01	3.8476E-09	4.289000E+01
-3.9531E-01	4.3845E-09	4.333000E+01
-3.7358E-01	4.9999E-09	4.376000E+01
-3.5155E-01	5.8321E-09	4.421000E+01
-3.3016E-01	6.8390E-09	4.464000E+01
-3.0828E-01	8.1298E-09	4.509000E+01
-2.6306E-01	1.1154E-08	4.600000E+01
-2.4170E-01	1.2715E-08	4.644000E+01
-2.2017E-01	1.4278E-08	4.687000E+01
-1.9815E-01	1.5822E-08	4.732000E+01
-1.7679E-01	1.7256E-08	4.775000E+01
-1.5494E-01	1.8620E-08	4.820000E+01
-1.3000E-01	1.9989E-08	4.870000E+01
-8.6795E-02	2.1979E-08	4.958000E+01
-6.4789E-02	2.2703E-08	5.003000E+01
-4.3275E-02	2.3333E-08	5.047000E+01
-2.1432E-02	2.3775E-08	5.091000E+01
4.0184E-03	2.3940E-08	5.143000E+01
2.5532E-02	2.4041E-08	5.186000E+01
4.7533E-02	2.3990E-08	5.231000E+01
6.8881E-02	2.3869E-08	5.274000E+01
9.0715E-02	2.3692E-08	5.319000E+01
1.1501E-01	2.3565E-08	5.368000E+01
1.3701E-01	2.3511E-08	5.413000E+01
1.5852E-01	2.3527E-08	5.456000E+01
1.8035E-01	2.3622E-08	5.501000E+01
2.2836E-01	2.4010E-08	5.598000E+01
2.7121E-01	2.4321E-08	5.685000E+01
2.9303E-01	2.4488E-08	5.729000E+01
3.1436E-01	2.4449E-08	5.773000E+01
3.3634E-01	2.4482E-08	5.817000E+01
3.6079E-01	2.4429E-08	5.867000E+01
3.8277E-01	2.4376E-08	5.912000E+01
4.0411E-01	2.4355E-08	5.955000E+01
4.2593E-01	2.4419E-08	5.999000E+01
4.4726E-01	2.4657E-08	6.043000E+01
4.6874E-01	2.5117E-08	6.086000E+01
4.9367E-01	2.5887E-08	6.137000E+01
5.1500E-01	2.6998E-08	6.180000E+01
5.3681E-01	2.8353E-08	6.225000E+01
5.5813E-01	3.0015E-08	6.268000E+01
5.8010E-01	3.2336E-08	6.313000E+01
6.0438E-01	3.6394E-08	6.362000E+01
6.2635E-01	4.2098E-08	6.407000E+01
6.4769E-01	4.8694E-08	6.450000E+01
6.6949E-01	5.4659E-08	6.494000E+01
7.1245E-01	6.2285E-08	6.583000E+01
7.3638E-01	6.6150E-08	6.631000E+01
7.5788E-01	7.1313E-08	6.674000E+01
7.7968E-01	8.0720E-08	6.719000E+01
7.9685E-01	8.0532E-08	6.762000E+01
7.8012E-01	4.5222E-08	6.807000E+01
7.5868E-01	3.2778E-08	6.850000E+01
7.3674E-01	2.6869E-08	6.895000E+01
7.1235E-01	2.3406E-08	6.944000E+01
6.9030E-01	2.1449E-08	6.989000E+01
6.6874E-01	1.9659E-08	7.032000E+01
6.4736E-01	1.7150E-08	7.076000E+01
6.2549E-01	1.3084E-08	7.120000E+01
6.0413E-01	7.5929E-09	7.163000E+01
5.7932E-01	6.0691E-10	7.214000E+01
5.5778E-01	-4.6076E-09	7.257000E+01
5.3575E-01	-8.5251E-09	7.302000E+01
5.1439E-01	-1.1064E-08	7.345000E+01
4.9255E-01	-1.2863E-08	7.389000E+01
4.7118E-01	-1.3742E-08	7.433000E+01
4.4686E-01	-1.4579E-08	7.482000E+01
4.0350E-01	-1.4897E-08	7.570000E+01
3.8167E-01	-1.5026E-08	7.614000E+01
3.6032E-01	-1.4929E-08	7.658000E+01
3.3553E-01	-1.4790E-08	7.708000E+01
3.1403E-01	-1.4759E-08	7.752000E+01
2.9204E-01	-1.4679E-08	7.796000E+01
2.7069E-01	-1.4582E-08	7.840000E+01
2.4936E-01	-1.4537E-08	7.883000E+01
2.2458E-01	-1.4591E-08	7.933000E+01
2.0309E-01	-1.4665E-08	7.977000E+01
1.8110E-01	-1.4791E-08	8.022000E+01
1.5976E-01	-1.4985E-08	8.065000E+01
1.3578E-01	-1.5279E-08	8.113000E+01
9.0182E-02	-1.6079E-08	8.206000E+01
6.8691E-02	-1.6523E-08	8.250000E+01
4.6879E-02	-1.7081E-08	8.294000E+01
2.5559E-02	-1.7629E-08	8.338000E+01
3.9060E-03	-1.8188E-08	8.381000E+01
-2.1021E-02	-1.8812E-08	8.432000E+01
-4.2338E-02	-1.9408E-08	8.475000E+01
-8.7106E-02	-2.0360E-08	8.566000E+01
-1.0908E-01	-2.0664E-08	8.613000E+01
-1.3269E-01	-2.0916E-08	8.659000E+01
-1.5466E-01	-2.1066E-08	8.704000E+01
-1.7614E-01	-2.1161E-08	8.747000E+01
-1.9811E-01	-2.1232E-08	8.792000E+01
-2.2725E-01	-2.1422E-08	8.853000E+01
-2.7117E-01	-2.2082E-08	8.941000E+01
-2.9248E-01	-2.2616E-08	8.985000E+01
-3.1427E-01	-2.3293E-08	9.029000E+01
-3.3575E-01	-2.4062E-08	9.072000E+01
-3.5770E-01	-2.4929E-08	9.119000E+01
-3.8196E-01	-2.5855E-08	9.166000E+01
-4.0375E-01	-2.6932E-08	9.211000E+01
-4.2506E-01	-2.7522E-08	9.254000E+01
-4.4703E-01	-2.8114E-08	9.299000E+01
-4.6850E-01	-2.8491E-08	9.342000E+01
-4.8980E-01	-2.8522E-08	9.386000E+01
-5.1469E-01	-2.8208E-08	9.437000E+01
-5.3617E-01	-2.7775E-08	9.480000E+01
-5.7958E-01	-2.7358E-08	9.568000E+01
-5.9305E-01	-1.6917E-08	9.613000E+01
-5.7077E-01	-4.5329E-09	9.663000E+01
-5.4866E-01	-1.2823E-09	9.707000E+01
-5.2723E-01	6.6690E-10	9.751000E+01
-5.0531E-01	1.8684E-09	9.795000E+01
-4.8390E-01	2.6884E-09	9.838000E+01
-4.5903E-01	3.2930E-09	9.889000E+01
-4.3746E-01	3.6860E-09	9.932000E+01
-4.1607E-01	4.1014E-09	9.976000E+01
-3.9419E-01	4.5583E-09	1.002000E+02
-3.7281E-01	5.1214E-09	1.006300E+02
-3.5077E-01	6.0114E-09	1.011000E+02
-3.2643E-01	7.0329E-09	1.015700E+02
-3.0441E-01	8.2821E-09	1.020200E+02
-2.8303E-01	9.6659E-09	1.024500E+02
-2.6117E-01	1.1166E-08	1.029000E+02
-2.3981E-01	1.2804E-08	1.033300E+02
-2.1827E-01	1.4370E-08	1.037700E+02
-1.9329E-01	1.6058E-08	1.042700E+02
-1.7192E-01	1.7536E-08	1.047100E+02
-1.2678E-01	2.0497E-08	1.056200E+02
-8.1120E-02	2.1862E-08	1.065500E+02
-5.9277E-02	2.2920E-08	1.070000E+02
-3.7930E-02	2.3415E-08	1.074300E+02
-1.6419E-02	2.3928E-08	1.078700E+02
5.4175E-03	2.3872E-08	1.083100E+02
2.9886E-02	2.4036E-08	1.088100E+02
5.1719E-02	2.4249E-08	1.092500E+02
7.3060E-02	2.3752E-08	1.096800E+02
9.5061E-02	2.3863E-08	1.101300E+02
1.1657E-01	2.3565E-08	1.105700E+02
1.3840E-01	2.3577E-08	1.110100E+02
1.5990E-01	2.3629E-08	1.114500E+02
1.8387E-01	2.3749E-08	1.119300E+02
2.0521E-01	2.3701E-08	1.123700E+02
2.2775E-01	2.4045E-08	1.128300E+02
2.4956E-01	2.4284E-08	1.132700E+02
2.7092E-01	2.4465E-08	1.137100E+02
2.9552E-01	2.4589E-08	1.142100E+02
3.1702E-01	2.4655E-08	1.146400E+02
3.8248E-01	2.4595E-08	1.159800E+02
4.0414E-01	2.4566E-08	1.164300E+02
4.2792E-01	2.4654E-08	1.169000E+02
4.4924E-01	2.4910E-08	1.173300E+02
4.7090E-01	2.5407E-08	1.177700E+02
4.9287E-01	2.6172E-08	1.182200E+02
5.1419E-01	2.7202E-08	1.186500E+02
5.3600E-01	2.8531E-08	1.190900E+02
5.6028E-01	3.0403E-08	1.195900E+02
5.8226E-01	3.2760E-08	1.200300E+02
6.0374E-01	3.6452E-08	1.204700E+02
6.2572E-01	4.2393E-08	1.209200E+02
6.4703E-01	4.9117E-08	1.213500E+02
6.6835E-01	5.4856E-08	1.217800E+02
6.9310E-01	5.9606E-08	1.222800E+02
7.1459E-01	6.2819E-08	1.227200E+02
7.3655E-01	6.6307E-08	1.231700E+02
7.5788E-01	7.1313E-08	1.236000E+02
7.7967E-01	8.0572E-08	1.240500E+02
7.9660E-01	7.5044E-08	1.245500E+02
7.7714E-01	4.2887E-08	1.250000E+02
7.3391E-01	2.6502E-08	1.258700E+02
7.1184E-01	2.3552E-08	1.263200E+02
6.9043E-01	2.1622E-08	1.267500E+02
6.6559E-01	1.9603E-08	1.272500E+02
6.4421E-01	1.7005E-08	1.276900E+02
6.2217E-01	1.2738E-08	1.281300E+02
6.0066E-01	7.0975E-09	1.285700E+02
5.7862E-01	8.5921E-10	1.290200E+02
5.5725E-01	-4.3799E-09	1.294500E+02
5.3243E-01	-8.7644E-09	1.299500E+02
5.1109E-01	-1.1217E-08	1.303900E+02
4.8956E-01	-1.2828E-08	1.308200E+02
4.6754E-01	-1.3886E-08	1.312700E+02
4.4618E-01	-1.4508E-08	1.317000E+02
4.2434E-01	-1.4777E-08	1.321500E+02
4.0003E-01	-1.5091E-08	1.326400E+02
3.7803E-01	-1.4990E-08	1.330900E+02
3.5653E-01	-1.4962E-08	1.335200E+02
3.3450E-01	-1.4813E-08	1.339700E+02
3.1317E-01	-1.4700E-08	1.344000E+02
2.9185E-01	-1.4618E-08	1.348400E+02
2.4655E-01	-1.4539E-08	1.357600E+02
2.2473E-01	-1.4578E-08	1.362000E+02
2.0340E-01	-1.4667E-08	1.366300E+02
1.8141E-01	-1.4828E-08	1.370800E+02
1.5363E-01	-1.5110E-08	1.376400E+02
1.1016E-01	-1.5843E-08	1.385200E+02
8.8174E-02	-1.6300E-08	1.389700E+02
6.6852E-02	-1.6800E-08	1.394000E+02
4.2084E-02	-1.7422E-08	1.399100E+02
2.0763E-02	-1.7979E-08	1.403400E+02
-7.2148E-04	-1.8566E-08	1.407800E+02
-2.2699E-02	-1.9160E-08	1.412200E+02
-4.4019E-02	-1.9696E-08	1.416600E+02
-6.5827E-02	-2.0189E-08	1.421000E+02
-8.8459E-02	-2.0616E-08	1.425700E+02
-1.1092E-01	-2.0935E-08	1.430200E+02
-1.3224E-01	-2.1130E-08	1.434500E+02
-1.5405E-01	-2.1256E-08	1.438900E+02
-1.7553E-01	-2.1322E-08	1.443300E+02
-1.9701E-01	-2.1371E-08	1.447700E+02
-2.4450E-01	-2.1711E-08	1.457300E+02
-2.8777E-01	-2.2575E-08	1.466200E+02
-3.0957E-01	-2.3225E-08	1.470600E+02
-3.3089E-01	-2.3955E-08	1.474900E+02
-3.5284E-01	-2.4825E-08	1.479600E+02
-3.7694E-01	-2.5819E-08	1.484300E+02
-3.9841E-01	-2.6672E-08	1.488700E+02
-4.2021E-01	-2.7453E-08	1.493100E+02
-4.4151E-01	-2.8079E-08	1.497400E+02
-4.6346E-01	-2.8411E-08	1.501900E+02
-4.8788E-01	-2.8464E-08	1.506900E+02
-5.0984E-01	-2.8195E-08	1.511300E+02
-5.3130E-01	-2.7730E-08	1.515700E+02
-5.5327E-01	-2.7284E-08	1.520200E+02
-5.7457E-01	-2.7143E-08	1.524500E+02
-5.9337E-01	-2.1532E-08	1.528900E+02
-5.7612E-01	-5.5491E-09	1.533900E+02
-5.5450E-01	-1.7823E-09	1.538300E+02
-5.3240E-01	3.9307E-10	1.542700E+02
-5.1097E-01	1.7684E-09	1.547100E+02
-4.6730E-01	3.2353E-09	1.556100E+02
-4.4310E-01	3.6453E-09	1.560800E+02
-4.2156E-01	4.0222E-09	1.565200E+02
-3.9967E-01	4.4745E-09	1.569600E+02
-3.7829E-01	4.9945E-09	1.573900E+02
-3.5674E-01	5.6868E-09	1.578300E+02
-3.3470E-01	6.6121E-09	1.582800E+02
-3.1020E-01	7.9482E-09	1.587700E+02
-2.8817E-01	9.3567E-09	1.592200E+02
-2.6680E-01	1.0844E-08	1.596500E+02
-2.4494E-01	1.2437E-08	1.601000E+02
-2.2341E-01	1.4004E-08	1.605300E+02
-1.9860E-01	1.5768E-08	1.610400E+02
-1.7708E-01	1.7216E-08	1.614700E+02
-1.5507E-01	1.8597E-08	1.619200E+02
-1.3195E-01	1.9936E-08	1.623900E+02
-8.6123E-02	2.2056E-08	1.633200E+02
-6.4771E-02	2.2804E-08	1.637600E+02
-4.2931E-02	2.3382E-08	1.642000E+02
-2.1423E-02	2.3799E-08	1.646400E+02
1.8997E-03	2.4075E-08	1.651100E+02
4.7869E-02	2.4121E-08	1.660400E+02
6.9371E-02	2.4005E-08	1.664800E+02
9.1371E-02	2.3833E-08	1.669300E+02
1.1271E-01	2.3695E-08	1.673600E+02
1.3405E-01	2.3650E-08	1.677900E+02
1.5605E-01	2.3649E-08	1.682400E+02
1.7755E-01	2.3805E-08	1.686900E+02
2.0146E-01	2.3825E-08	1.691600E+02
2.2815E-01	2.4181E-08	1.697000E+02
2.7442E-01	2.4597E-08	1.706500E+02
2.9641E-01	2.4729E-08	1.710900E+02
3.1790E-01	2.4800E-08	1.715300E+02
3.3988E-01	2.4815E-08	1.719800E+02
3.6121E-01	2.4789E-08	1.724100E+02
3.8254E-01	2.4738E-08	1.728400E+02
4.0452E-01	2.4711E-08	1.732900E+02
4.2880E-01	2.4821E-08	1.737800E+02
4.5095E-01	2.5057E-08	1.742300E+02
4.7243E-01	2.5581E-08	1.746700E+02
4.9424E-01	2.6372E-08	1.751100E+02
5.3754E-01	2.8749E-08	1.760100E+02
5.6149E-01	3.0598E-08	1.764800E+02
5.8346E-01	3.3008E-08	1.769200E+02
6.0477E-01	3.6806E-08	1.773600E+02
6.2609E-01	4.2737E-08	1.777900E+02
6.4807E-01	4.9772E-08	1.782400E+02
6.7086E-01	5.5730E-08	1.787100E+02
6.9315E-01	5.9831E-08	1.791500E+02
7.1448E-01	6.2938E-08	1.795900E+02
7.3644E-01	6.6423E-08	1.800300E+02
7.5793E-01	7.1356E-08	1.804700E+02
7.7989E-01	8.0645E-08	1.809200E+02
7.9689E-01	8.0722E-08	1.813500E+02
7.8100E-01	4.6033E-08	1.817800E+02
7.5609E-01	3.1934E-08	1.822900E+02
7.3447E-01	2.6573E-08	1.827200E+02
7.1240E-01	2.3558E-08	1.831700E+02
6.9099E-01	2.1624E-08	1.836000E+02
6.6910E-01	1.9869E-08	1.840500E+02
6.4312E-01	1.6842E-08	1.845700E+02
6.2107E-01	1.2553E-08	1.850200E+02
5.7752E-01	6.9921E-10	1.859000E+02
5.5614E-01	-4.5099E-09	1.863400E+02
5.3461E-01	-8.3944E-09	1.867800E+02
5.1097E-01	-1.1234E-08	1.872600E+02
4.8944E-01	-1.2840E-08	1.876900E+02
4.6742E-01	-1.3833E-08	1.881400E+02
4.2390E-01	-1.4714E-08	1.890200E+02
4.0123E-01	-1.4838E-08	1.894900E+02
3.7874E-01	-1.4835E-08	1.899400E+02
3.5722E-01	-1.4753E-08	1.903700E+02
3.3587E-01	-1.4678E-08	1.908100E+02
3.1406E-01	-1.4633E-08	1.912500E+02
2.9272E-01	-1.4584E-08	1.916900E+02
2.7055E-01	-1.4506E-08	1.921600E+02
2.4643E-01	-1.4503E-08	1.926200E+02
2.2444E-01	-1.4543E-08	1.930700E+02
2.0311E-01	-1.4667E-08	1.935000E+02
1.8129E-01	-1.4807E-08	1.939500E+02
1.5979E-01	-1.5095E-08	1.943800E+02
1.3612E-01	-1.5415E-08	1.948600E+02
9.1335E-02	-1.6323E-08	1.957700E+02
6.9192E-02	-1.6874E-08	1.962200E+02
4.7868E-02	-1.7424E-08	1.966500E+02
2.6053E-02	-1.8010E-08	1.971000E+02
1.7773E-03	-1.8703E-08	1.975900E+02
-2.0362E-02	-1.9336E-08	1.980400E+02
-4.1845E-02	-1.9850E-08	1.984800E+02
-6.3822E-02	-2.0358E-08	1.989200E+02
-8.5139E-02	-2.0745E-08	1.993600E+02
-1.0646E-01	-2.1074E-08	1.997900E+02
-1.3122E-01	-2.1302E-08	2.002900E+02
-1.5270E-01	-2.1376E-08	2.007300E+02
-1.7467E-01	-2.1466E-08	2.011800E+02
-1.9598E-01	-2.1483E-08	2.016100E+02
-2.2775E-01	-2.1670E-08	2.022600E+02
-2.7101E-01	-2.2269E-08	2.031400E+02
-2.9248E-01	-2.2818E-08	2.035800E+02
-3.1444E-01	-2.3482E-08	2.040200E+02
-3.3576E-01	-2.4182E-08	2.044600E+02
-3.5755E-01	-2.5137E-08	2.049200E+02
-4.0310E-01	-2.6937E-08	2.058300E+02
-4.2508E-01	-2.7675E-08	2.062700E+02
-4.4637E-01	-2.8200E-08	2.067100E+02
-4.6817E-01	-2.8482E-08	2.071500E+02
-4.9259E-01	-2.8436E-08	2.076500E+02
-5.1455E-01	-2.8072E-08	2.080900E+02
-5.3601E-01	-2.7571E-08	2.085300E+02
-5.5797E-01	-2.7142E-08	2.089800E+02
-5.7927E-01	-2.7038E-08	2.094100E+02
-5.9333E-01	-1.7498E-08	2.098400E+02
-5.7129E-01	-4.4199E-09	2.103500E+02
-5.4967E-01	-1.1754E-09	2.107900E+02
-5.2758E-01	7.6613E-10	2.112300E+02
-5.0598E-01	1.9569E-09	2.116700E+02
-4.8408E-01	2.7361E-09	2.121100E+02
-4.6267E-01	3.2130E-09	2.125600E+02
-4.3848E-01	3.6799E-09	2.130400E+02
-4.1692E-01	4.0783E-09	2.134700E+02
-3.9503E-01	4.4945E-09	2.139200E+02
-3.7365E-01	5.0745E-09	2.143500E+02
-3.5210E-01	5.8660E-09	2.147900E+02
-3.0573E-01	8.2244E-09	2.157300E+02
-2.8370E-01	9.7151E-09	2.161700E+02
-2.6234E-01	1.1162E-08	2.166100E+02
-2.4048E-01	1.2835E-08	2.170500E+02
-2.1895E-01	1.4383E-08	2.174900E+02
-1.9396E-01	1.6115E-08	2.179900E+02
-1.7244E-01	1.7565E-08	2.184300E+02
-1.4932E-01	1.8999E-08	2.189000E+02
-1.0448E-01	2.1341E-08	2.198200E+02
-8.2147E-02	2.2260E-08	2.202700E+02
-6.0796E-02	2.2982E-08	2.207000E+02
-3.8796E-02	2.3530E-08	2.211500E+02
-1.7281E-02	2.3935E-08	2.215800E+02
4.7202E-03	2.4170E-08	2.220300E+02
2.6065E-02	2.4243E-08	2.224700E+02
5.0032E-02	2.4194E-08	2.229500E+02
7.1542E-02	2.4069E-08	2.233800E+02
9.3043E-02	2.3909E-08	2.238200E+02
1.1488E-01	2.3772E-08	2.242600E+02
1.3622E-01	2.3716E-08	2.247000E+02
1.8250E-01	2.3875E-08	2.256400E+02
2.0445E-01	2.3998E-08	2.260900E+02
2.2733E-01	2.4252E-08	2.265500E+02
2.7064E-01	2.4674E-08	2.274500E+02
2.9509E-01	2.4832E-08	2.279200E+02
3.1642E-01	2.4895E-08	2.283600E+02
3.3775E-01	2.4925E-08	2.287900E+02
3.5974E-01	2.4896E-08	2.292400E+02
3.8123E-01	2.4833E-08	2.296700E+02
4.0320E-01	2.4820E-08	2.301200E+02
4.2748E-01	2.4889E-08	2.306100E+02
4.4930E-01	2.5146E-08	2.310600E+02
4.7063E-01	2.5599E-08	2.314900E+02
4.9260E-01	2.6358E-08	2.319400E+02
5.1409E-01	2.7412E-08	2.323700E+02
5.3541E-01	2.8715E-08	2.328100E+02
5.6001E-01	3.0471E-08	2.333100E+02
5.8133E-01	3.2750E-08	2.337400E+02
6.0330E-01	3.6542E-08	2.341900E+02
6.2478E-01	4.2426E-08	2.346200E+02
6.4660E-01	4.9633E-08	2.350700E+02
6.9316E-01	6.0001E-08	2.360100E+02
7.1449E-01	6.3137E-08	2.364500E+02
7.3645E-01	6.6364E-08	2.368900E+02
7.5793E-01	7.1342E-08	2.373300E+02
7.7923E-01	8.0290E-08	2.377600E+02
7.9696E-01	8.1118E-08	2.382100E+02
7.8133E-01	4.6356E-08	2.386400E+02
7.5642E-01	3.1958E-08	2.391400E+02
7.3480E-01	2.6651E-08	2.395800E+02
7.1272E-01	2.3575E-08	2.400300E+02
6.9133E-01	2.1640E-08	2.404600E+02
6.6944E-01	1.9888E-08	2.409300E+02
6.4509E-01	1.7128E-08	2.414000E+02
6.2356E-01	1.3190E-08	2.418300E+02
6.0153E-01	7.5482E-09	2.422800E+02
5.8017E-01	1.4792E-09	2.427100E+02
5.5831E-01	-3.9983E-09	2.431600E+02
5.3694E-01	-8.0090E-09	2.435900E+02
5.1212E-01	-1.1091E-08	2.440900E+02
4.9060E-01	-1.2741E-08	2.445300E+02
4.6741E-01	-1.3830E-08	2.450000E+02
4.2438E-01	-1.4719E-08	2.459200E+02
4.0040E-01	-1.4840E-08	2.463600E+02
3.7906E-01	-1.4854E-08	2.467900E+02
3.5706E-01	-1.4798E-08	2.472400E+02
3.3554E-01	-1.4720E-08	2.476800E+02
2.9222E-01	-1.4551E-08	2.485600E+02
2.6907E-01	-1.4503E-08	2.490400E+02
2.4708E-01	-1.4500E-08	2.494700E+02
2.2525E-01	-1.4542E-08	2.499200E+02
2.0392E-01	-1.4667E-08	2.503500E+02
1.8243E-01	-1.4850E-08	2.507900E+02
1.6044E-01	-1.5113E-08	2.512300E+02
1.3694E-01	-1.5442E-08	2.517100E+02
9.2313E-02	-1.6357E-08	2.526100E+02
7.0496E-02	-1.6885E-08	2.530600E+02
4.9174E-02	-1.7457E-08	2.534900E+02
2.7197E-02	-1.8053E-08	2.539400E+02
5.7091E-03	-1.8685E-08	2.544000E+02
-1.8560E-02	-1.9376E-08	2.548700E+02
-6.2020E-02	-2.0432E-08	2.557500E+02
-8.3993E-02	-2.0826E-08	2.562000E+02
-1.0548E-01	-2.1132E-08	2.566300E+02
-1.2745E-01	-2.1316E-08	2.571000E+02
-1.5172E-01	-2.1539E-08	2.575700E+02
-1.7353E-01	-2.1549E-08	2.580200E+02
-1.9484E-01	-2.1567E-08	2.584500E+02
-2.2710E-01	-2.1711E-08	2.591100E+02
-2.7037E-01	-2.2316E-08	2.599900E+02
-2.9185E-01	-2.2835E-08	2.604300E+02
-3.1315E-01	-2.3496E-08	2.608600E+02
-3.3494E-01	-2.4274E-08	2.613000E+02
-3.5919E-01	-2.5229E-08	2.618000E+02
-3.8116E-01	-2.6138E-08	2.622400E+02
-4.0264E-01	-2.6966E-08	2.626800E+02
-4.2458E-01	-2.7711E-08	2.631300E+02
-4.4589E-01	-2.8198E-08	2.635600E+02
-4.6770E-01	-2.8562E-08	2.640300E+02
-4.9178E-01	-2.8426E-08	2.644900E+02
-5.1373E-01	-2.8103E-08	2.649400E+02
-5.5650E-01	-2.7110E-08	2.658100E+02
-5.7845E-01	-2.6973E-08	2.662800E+02
-5.9272E-01	-1.5500E-08	2.667500E+02
-5.7229E-01	-4.5599E-09	2.671900E+02
-5.5067E-01	-1.2238E-09	2.676300E+02
-5.2858E-01	7.5767E-10	2.680800E+02
-5.0715E-01	1.9638E-09	2.685100E+02
-4.8524E-01	2.7630E-09	2.689800E+02
-4.6104E-01	3.3030E-09	2.694500E+02
-4.3881E-01	3.6830E-09	2.698900E+02
-4.1726E-01	4.0714E-09	2.703300E+02
-3.9587E-01	4.4976E-09	2.707600E+02
-3.7399E-01	5.0860E-09	2.712100E+02
-3.4965E-01	5.9421E-09	2.717000E+02
-3.2761E-01	6.9698E-09	2.721500E+02
-3.0608E-01	8.2113E-09	2.725800E+02
-2.8405E-01	9.6728E-09	2.730300E+02
-2.6267E-01	1.1186E-08	2.734600E+02
-2.4082E-01	1.2786E-08	2.739100E+02
-2.1650E-01	1.4559E-08	2.744000E+02
-1.9496E-01	1.6089E-08	2.748300E+02
-1.4983E-01	1.9015E-08	2.757500E+02
-1.0335E-01	2.1429E-08	2.767000E+02
-8.1340E-02	2.2311E-08	2.771400E+02
-5.9827E-02	2.3029E-08	2.775800E+02
-3.7826E-02	2.3599E-08	2.780300E+02
-1.6480E-02	2.3979E-08	2.784600E+02
5.3613E-03	2.4221E-08	2.789300E+02
2.9497E-02	2.4297E-08	2.793900E+02
5.1004E-02	2.4245E-08	2.798300E+02
7.3001E-02	2.4101E-08	2.802800E+02
9.4342E-02	2.3955E-08	2.807100E+02
1.1618E-01	2.3812E-08	2.811600E+02
1.4047E-01	2.3755E-08	2.816500E+02
1.6263E-01	2.3795E-08	2.821000E+02
1.8413E-01	2.3942E-08	2.825300E+02
